===== Results for clang, L=1024, -O0 =====
===== Program output =====
# L: 1024
# Minimum Temperature: 1.500000
# Maximum Temperature: 3.000000
# Temperature Step: 0.010000000000
# Equilibration Time: 5
# Measurement Time: 25
# Data Acquiring Step: 5
# Number of Points: 151
# Total Simulation Time (sec): 95.049514
# Temp	E	E^2	E^4	M	M^2	M^4
1.500000	-1.9512367249	3.8073251652	14.4957311408	0.9865299225	0.9732413293	0.9471988459
1.510000	-1.9497291565	3.8014440571	14.4509810753	0.9860927582	0.9723789594	0.9455209639
1.520000	-1.9468788147	3.7903372231	14.3666578416	0.9852886200	0.9707936812	0.9424404355
1.530000	-1.9454261780	3.7846838482	14.3238444603	0.9848129272	0.9698565829	0.9406221067
1.540000	-1.9427719116	3.7743630038	14.2458206617	0.9840145111	0.9682845889	0.9375751648
1.550000	-1.9404357910	3.7652912924	14.1774220328	0.9832969666	0.9668729549	0.9348434288
1.560000	-1.9378448486	3.7552429759	14.1018545917	0.9825275421	0.9653604010	0.9319208194
1.570000	-1.9358345032	3.7474555587	14.0434281859	0.9819313049	0.9641891077	0.9296607127
1.580000	-1.9327842712	3.7356553190	13.9551248444	0.9810749054	0.9625079907	0.9264217117
1.590000	-1.9307785034	3.7279061335	13.8972916593	0.9804248810	0.9612329958	0.9239690587
1.600000	-1.9294418335	3.7227460567	13.8588421930	0.9799842834	0.9603692268	0.9223091709
1.610000	-1.9259902954	3.7094399752	13.7599650721	0.9789100647	0.9582650325	0.9182723240
1.620000	-1.9232368469	3.6988410378	13.6814408311	0.9780418396	0.9565659823	0.9150190231
1.630000	-1.9205062866	3.6883451878	13.6039018913	0.9772453308	0.9550085151	0.9120415636
1.640000	-1.9173149109	3.6760965488	13.5136870316	0.9761840820	0.9529353685	0.9080858411
1.650000	-1.9143554687	3.6647575080	13.4304570799	0.9752635956	0.9511391503	0.9046659474
1.660000	-1.9106689453	3.6506563495	13.3272995353	0.9741806030	0.9490278951	0.9006541271
1.670000	-1.9083663940	3.6418627715	13.2631714007	0.9733768463	0.9474625442	0.8976854973
1.680000	-1.9046646118	3.6277491699	13.1605913955	0.9721782684	0.9451307784	0.8932729166
1.690000	-1.9008491516	3.6132288352	13.0554419591	0.9709667206	0.9427764942	0.8888279773
1.700000	-1.8973464966	3.5999243135	12.9594634973	0.9698554993	0.9406197447	0.8847657120
1.710000	-1.8952346802	3.5919151111	12.9018630442	0.9690570831	0.9390717405	0.8818561476
1.720000	-1.8912368774	3.5767782910	12.7933624731	0.9678585052	0.9367501988	0.8775013567
1.730000	-1.8876808167	3.5633390585	12.6973879964	0.9666831970	0.9344764423	0.8732463668
1.740000	-1.8833122253	3.5468655428	12.5802637578	0.9651374817	0.9314904684	0.8676749020
1.750000	-1.8795341492	3.5326510296	12.4796573637	0.9638359070	0.9289800622	0.8630054669
1.760000	-1.8768676758	3.5226330600	12.4089547702	0.9629585266	0.9272891962	0.8598655215
1.770000	-1.8712951660	3.5017469631	12.2622509092	0.9610485077	0.9236144074	0.8530642137
1.780000	-1.8684539795	3.4911206936	12.1879295642	0.9601448059	0.9218781343	0.8498596114
1.790000	-1.8629432678	3.4705589052	12.0447969669	0.9581428528	0.9180378695	0.8427940555
1.800000	-1.8593353271	3.4571288165	11.9517528941	0.9568614960	0.9155840496	0.8382946175
1.810000	-1.8556396484	3.4433992607	11.8570088813	0.9555519104	0.9130796173	0.8337149862
1.820000	-1.8502120972	3.4232854180	11.7188914559	0.9536685944	0.9094839101	0.8271614276
1.830000	-1.8452606201	3.4049888207	11.5939769887	0.9518508911	0.9060206066	0.8208751070
1.840000	-1.8418556213	3.3924330620	11.5086147279	0.9505443573	0.9035347054	0.8163754345
1.850000	-1.8351783752	3.3678811850	11.3426441028	0.9479572296	0.8986231646	0.8075245101
1.860000	-1.8313568115	3.3538681506	11.2484366622	0.9467472076	0.8963304191	0.8034087361
1.870000	-1.8264785767	3.3360253599	11.1290834653	0.9449001312	0.8928366190	0.7971585174
1.880000	-1.8206604004	3.3148063930	10.9879692344	0.9424945831	0.8882965170	0.7890723989
1.890000	-1.8146621704	3.2930004161	10.8438731259	0.9401481628	0.8838787406	0.7812422383
1.900000	-1.8087615967	3.2716197857	10.7035126714	0.9381164551	0.8800627522	0.7745113946
1.910000	-1.8039421082	3.2542080786	10.5898825714	0.9361339569	0.8763469760	0.7679846911
1.920000	-1.7972541809	3.2301231714	10.4337032051	0.9333423615	0.8711280677	0.7588644727
1.930000	-1.7919708252	3.2111598981	10.3115537960	0.9312778473	0.8672784497	0.7521719816
1.940000	-1.7875984192	3.1955100667	10.2113096065	0.9294834137	0.8639398022	0.7463933149
1.950000	-1.7802955627	3.1694536947	10.0454545380	0.9263092041	0.8580491277	0.7362496319
1.960000	-1.7724899292	3.1417208213	9.8704131401	0.9233924866	0.8526537932	0.7270188629
1.970000	-1.7668479919	3.1217534598	9.7453650581	0.9208255768	0.8479198542	0.7189684566
1.980000	-1.7591453552	3.0945950443	9.5765514395	0.9175132751	0.8418310457	0.7086809760
1.990000	-1.7546409607	3.0787688791	9.4788667734	0.9153747559	0.8379121617	0.7021008697
2.000000	-1.7452651978	3.0459534458	9.2778669680	0.9112091064	0.8303029111	0.6894058328
2.010000	-1.7398643494	3.0271288307	9.1635195698	0.9085662842	0.8254930929	0.6814401682
2.020000	-1.7309745789	2.9962782580	8.9777464873	0.9047897339	0.8186452905	0.6701828221
2.030000	-1.7231613159	2.9692886643	8.8167196578	0.9002666473	0.8104809108	0.6568821435
2.040000	-1.7148620605	2.9407541977	8.6480624375	0.8973018646	0.8051514944	0.6482716932
2.050000	-1.7071754456	2.9144503414	8.4940480621	0.8932456970	0.7978883519	0.6366273446
2.060000	-1.6989494324	2.8864327933	8.3315360503	0.8887107849	0.7898081077	0.6238007911
2.070000	-1.6909149170	2.8591935964	8.1749919087	0.8845767975	0.7824764417	0.6122704177
2.080000	-1.6819084167	2.8288204549	8.0022764784	0.8795928955	0.7736855652	0.5985952450
2.090000	-1.6718696594	2.7951495849	7.8128771611	0.8747001648	0.7651009677	0.5853812945
2.100000	-1.6612770081	2.7598417378	7.6167312785	0.8672904968	0.7521937050	0.5657980752
2.110000	-1.6514755249	2.7273758559	7.4386276503	0.8627338409	0.7443122322	0.5540083015
2.120000	-1.6409614563	2.6927554910	7.2509427986	0.8560310364	0.7327897084	0.5369824374
2.130000	-1.6315490723	2.6619534673	7.0860078938	0.8515663147	0.7251658926	0.5258676147
2.140000	-1.6200950623	2.6247129563	6.8891699907	0.8442810059	0.7128111166	0.5081016830
2.150000	-1.6100990295	2.5924213674	6.7206742739	0.8370346069	0.7006292152	0.4908876954
2.160000	-1.5982170105	2.5543199046	6.5247774570	0.8290222168	0.6872896688	0.4723995776
2.170000	-1.5882369995	2.5225094426	6.3631820339	0.8217433929	0.6752655154	0.4559924686
2.180000	-1.5763366699	2.4848388073	6.1744389134	0.8147563934	0.6638281544	0.4406682802
2.190000	-1.5619514465	2.4396967437	5.9521633394	0.8022262573	0.6435689199	0.4141859777
2.200000	-1.5479385376	2.3961185133	5.7414298895	0.7897052765	0.6236431037	0.3889524003
2.210000	-1.5348052979	2.3556339330	5.5490736510	0.7762214661	0.6025265805	0.3630546497
2.220000	-1.5214752197	2.3148925733	5.3587806207	0.7636493683	0.5831666814	0.3400980846
2.230000	-1.5043327332	2.2630195108	5.1212802824	0.7489307404	0.5608994806	0.3146132249
2.240000	-1.4887504578	2.2163794063	4.9123507970	0.7300510406	0.5329830072	0.2840890033
2.250000	-1.4747962952	2.1750248087	4.7307389764	0.7137111664	0.5093864915	0.2594804331
2.260000	-1.4594886780	2.1301091455	4.5373815453	0.6928146362	0.4800112399	0.2304476081
2.270000	-1.4404251099	2.0748301568	4.3049671292	0.6654609680	0.4428535516	0.1961463820
2.280000	-1.4230430603	2.0250698860	4.1010562955	0.6428901672	0.4133433008	0.1709116108
2.290000	-1.4044555664	1.9724994376	3.8907856395	0.6209007263	0.3855401967	0.1486757889
2.300000	-1.3832656860	1.9134320288	3.6612838627	0.5803108215	0.3367851799	0.1134574106
2.310000	-1.3641731262	1.8609787521	3.4633197165	0.5399024963	0.2915941162	0.0851441406
2.320000	-1.3403976440	1.7966701860	3.2280549627	0.4949657440	0.2451081430	0.0601920019
2.330000	-1.3187728882	1.7391647897	3.0247140607	0.4417503357	0.1952042316	0.0381523854
2.340000	-1.3059173584	1.7054244653	2.9085020128	0.3973320007	0.1580849551	0.0251254430
2.350000	-1.2844406128	1.6497980173	2.7219016771	0.3382862091	0.1145513694	0.0131746541
2.360000	-1.2657463074	1.6021212735	2.5668409555	0.2813968658	0.0793079531	0.0063299098
2.370000	-1.2487380981	1.5593643081	2.4317260623	0.2330352783	0.0544480831	0.0029949933
2.380000	-1.2377525330	1.5320343044	2.3471473264	0.1782577515	0.0318910854	0.0010318374
2.390000	-1.2207374573	1.4902001105	2.2206973886	0.1314201355	0.0173318223	0.0003045543
2.400000	-1.2090774536	1.4618686206	2.1370618029	0.0929637909	0.0086942375	0.0000774455
2.410000	-1.1933952332	1.4241983784	2.0283763534	0.0714763641	0.0051333246	0.0000268573
2.420000	-1.1849754333	1.4041725628	1.9717330601	0.0380847931	0.0014575508	0.0000021636
2.430000	-1.1727539063	1.3753559840	1.8916275199	0.0245128632	0.0006723335	0.0000006138
2.440000	-1.1628128052	1.3521461172	1.8283665190	0.0026302338	0.0000116115	0.0000000004
2.450000	-1.1544441223	1.3327480102	1.7762534324	0.0021255493	0.0000077607	0.0000000001
2.460000	-1.1436325073	1.3079150311	1.7107445467	0.0072322845	0.0001004968	0.0000000306
2.470000	-1.1336868286	1.2852492037	1.6518828902	0.0173976898	0.0003072948	0.0000000996
2.480000	-1.1217475891	1.2583198550	1.5833799380	0.0166511536	0.0003171445	0.0000001565
2.490000	-1.1151855469	1.2436411704	1.5466551319	0.0026092529	0.0000089147	0.0000000002
2.500000	-1.1051635742	1.2213878957	1.4917950850	0.0054019928	0.0000352607	0.0000000019
2.510000	-1.0981872559	1.2060196159	1.4545044056	0.0036605835	0.0000230714	0.0000000015
2.520000	-1.0911491394	1.1906071710	1.4175488953	0.0033771515	0.0000164178	0.0000000006
2.530000	-1.0810371399	1.1686484921	1.3657729524	0.0037456512	0.0000157172	0.0000000004
2.540000	-1.0732597351	1.1518891232	1.3268608340	0.0023975372	0.0000072839	0.0000000001
2.550000	-1.0645141602	1.1331914603	1.2841277055	0.0037475586	0.0000176789	0.0000000005
2.560000	-1.0592651367	1.1220451860	1.2589968877	0.0019046783	0.0000055368	0.0000000001
2.570000	-1.0493034363	1.1010398981	1.2122985432	0.0052398682	0.0000479571	0.0000000060
2.580000	-1.0442344666	1.0904320478	1.1890700931	0.0031398773	0.0000143411	0.0000000005
2.590000	-1.0348495483	1.0709138016	1.1468572869	0.0016853333	0.0000051965	0.0000000001
2.600000	-1.0304367065	1.0618021548	1.1274337731	0.0027954102	0.0000099855	0.0000000002
2.610000	-1.0223960876	1.0452957786	1.0926517079	0.0019542694	0.0000053131	0.0000000001
2.620000	-1.0156417847	1.0315302188	1.0640627809	0.0042808533	0.0000248694	0.0000000011
2.630000	-1.0092430115	1.0185764026	1.0375180251	0.0049659729	0.0000375697	0.0000000030
2.640000	-1.0004821777	1.0009693752	1.0019588536	0.0048263550	0.0000321547	0.0000000018
2.650000	-0.9929412842	0.9859420765	0.9721199844	0.0050811768	0.0000353448	0.0000000027
2.660000	-0.9863624573	0.9729122994	0.9465637973	0.0026184082	0.0000094359	0.0000000002
2.670000	-0.9826766968	0.9656548828	0.9324947234	0.0050670624	0.0000291796	0.0000000013
2.680000	-0.9762008667	0.9529706465	0.9081626506	0.0056098938	0.0000363601	0.0000000020
2.690000	-0.9697082520	0.9403436937	0.8842824179	0.0021438599	0.0000059859	0.0000000001
2.700000	-0.9643318176	0.9299390353	0.8647984343	0.0045639038	0.0000238075	0.0000000008
2.710000	-0.9593055725	0.9202682666	0.8468976735	0.0051364899	0.0000334806	0.0000000022
2.720000	-0.9509750366	0.9043567063	0.8178725727	0.0054676056	0.0000498751	0.0000000081
2.730000	-0.9458221436	0.8945848399	0.8003010155	0.0026363373	0.0000135145	0.0000000006
2.740000	-0.9400688171	0.8837371991	0.7810190218	0.0032955170	0.0000130481	0.0000000003
2.750000	-0.9352684021	0.8747296716	0.7651614040	0.0055366516	0.0000335426	0.0000000014
2.760000	-0.9294136047	0.8638145559	0.7461925044	0.0034275055	0.0000158111	0.0000000004
2.770000	-0.9265655518	0.8585254808	0.7370720393	0.0027233124	0.0000088038	0.0000000001
2.780000	-0.9194366455	0.8453682295	0.7146626366	0.0020839691	0.0000067277	0.0000000001
2.790000	-0.9143531799	0.8360422426	0.6989683209	0.0009452820	0.0000028558	0.0000000000
2.800000	-0.9073463440	0.8232779192	0.6777882821	0.0042381287	0.0000203487	0.0000000005
2.810000	-0.9027694702	0.8149942575	0.6642206600	0.0016300201	0.0000038722	0.0000000000
2.820000	-0.8978355408	0.8061102673	0.6498189503	0.0025421143	0.0000093503	0.0000000002
2.830000	-0.8935272217	0.7983923148	0.6374348257	0.0039733887	0.0000265977	0.0000000016
2.840000	-0.8887031555	0.7897972116	0.6237919721	0.0031425476	0.0000119379	0.0000000002
2.850000	-0.8836914062	0.7809117552	0.6098270830	0.0017456055	0.0000055917	0.0000000001
2.860000	-0.8795494080	0.7736078595	0.5984712817	0.0037887573	0.0000190016	0.0000000009
2.870000	-0.8748710632	0.7654000999	0.5858395258	0.0013587952	0.0000021527	0.0000000000
2.880000	-0.8687385559	0.7547079575	0.5695879646	0.0027488708	0.0000156933	0.0000000007
2.890000	-0.8656242371	0.7493065554	0.5614640229	0.0049293518	0.0000302655	0.0000000014
2.900000	-0.8584434509	0.7369264449	0.5430643759	0.0030982971	0.0000180458	0.0000000012
2.910000	-0.8561584473	0.7330100502	0.5373118283	0.0021682739	0.0000052027	0.0000000000
2.920000	-0.8507232666	0.7237338553	0.5238016191	0.0014259338	0.0000029205	0.0000000000
2.930000	-0.8465202332	0.7165970865	0.5135130514	0.0041629791	0.0000209985	0.0000000008
2.940000	-0.8430046082	0.7106569697	0.5050338982	0.0031486511	0.0000129876	0.0000000003
2.950000	-0.8383666992	0.7028604941	0.4940178602	0.0038578033	0.0000231293	0.0000000013
2.960000	-0.8333038330	0.6943973110	0.4821932785	0.0019588470	0.0000066029	0.0000000001
2.970000	-0.8286705017	0.6866996682	0.4715698257	0.0057315826	0.0000451978	0.0000000050
2.980000	-0.8251129150	0.6808134382	0.4635127007	0.0023414612	0.0000057619	0.0000000000
2.990000	-0.8219009399	0.6755310410	0.4563690014	0.0026046753	0.0000102382	0.0000000002
3.000000	-0.8158226013	0.6655691196	0.4429891767	0.0018016815	0.0000075216	0.0000000002

===== Performance statistics =====
# started on Mon Mar 24 18:25:24 2025


 Performance counter stats for './tiny_ising':

         95,042.64 msec task-clock                       #    1.000 CPUs utilized             
               308      context-switches                 #    3.241 /sec                      
                 3      cpu-migrations                   #    0.032 /sec                      
               591      page-faults                      #    6.218 /sec                      
   340,254,441,631      cycles                           #    3.580 GHz                       
     7,631,215,829      stalled-cycles-frontend          #    2.24% frontend cycles idle      
   931,923,449,543      instructions                     #    2.74  insn per cycle            
                                                  #    0.01  stalled cycles per insn   
   113,015,337,149      branches                         #    1.189 G/sec                     
     1,338,992,718      branch-misses                    #    1.18% of all branches           

      95.056413747 seconds time elapsed

      95.042296000 seconds user
       0.000000000 seconds sys


