===== Results for clang, L=1024, -O1 =====
===== Program output =====
# L: 1024
# Minimum Temperature: 1.500000
# Maximum Temperature: 3.000000
# Temperature Step: 0.010000000000
# Equilibration Time: 5
# Measurement Time: 25
# Data Acquiring Step: 5
# Number of Points: 151
# Total Simulation Time (sec): 56.359508
# Temp	E	E^2	E^4	M	M^2	M^4
1.500000	-1.9516281128	3.8088535062	14.5073835545	0.9866519928	0.9734822585	0.9476681113
1.510000	-1.9488899231	3.7981723555	14.4261196732	0.9858356476	0.9718719616	0.9445352555
1.520000	-1.9468231201	3.7901205008	14.3650170454	0.9852760315	0.9707688906	0.9423923649
1.530000	-1.9446067810	3.7814957286	14.2997129067	0.9846008301	0.9694388261	0.9398117599
1.540000	-1.9428108215	3.7745140752	14.2469593262	0.9840766907	0.9684069405	0.9378120311
1.550000	-1.9403427124	3.7649300208	14.1747007609	0.9833065033	0.9668916918	0.9348795915
1.560000	-1.9381156921	3.7562927454	14.1097398346	0.9826103210	0.9655230678	0.9322348901
1.570000	-1.9362464905	3.7490509789	14.0553908433	0.9820606232	0.9644430925	0.9301505747
1.580000	-1.9329727173	3.7363840844	13.9605743781	0.9810512543	0.9624616033	0.9263324911
1.590000	-1.9308052063	3.7280092925	13.8980614547	0.9804061890	0.9611963776	0.9238987927
1.600000	-1.9287445068	3.7200555239	13.8388153522	0.9797187805	0.9598489155	0.9213100428
1.610000	-1.9258712769	3.7089804496	13.7565400511	0.9789367676	0.9583172088	0.9183719258
1.620000	-1.9228317261	3.6972825142	13.6699078585	0.9778633118	0.9562167180	0.9143506470
1.630000	-1.9203651428	3.6878027215	13.5998954012	0.9771560669	0.9548340393	0.9117082729
1.640000	-1.9173278809	3.6761473257	13.5140756717	0.9762428284	0.9530501672	0.9083050303
1.650000	-1.9136978149	3.6622404726	13.4120220601	0.9751380920	0.9508943600	0.9042003177
1.660000	-1.9116302490	3.6543309715	13.3541459970	0.9744312286	0.9495162853	0.9015814266
1.670000	-1.9080535889	3.6406692401	13.2544833198	0.9732948303	0.9473028692	0.8973828867
1.680000	-1.9052330017	3.6299140872	13.1762951106	0.9723693848	0.9455023596	0.8939752383
1.690000	-1.9015739441	3.6159841779	13.0753518852	0.9711856842	0.9432017559	0.8896300153
1.700000	-1.8977897644	3.6016065727	12.9715782998	0.9700008392	0.9409016837	0.8852961876
1.710000	-1.8951950073	3.5917647613	12.9007833741	0.9690860748	0.9391278829	0.8819614151
1.720000	-1.8916046143	3.5781681389	12.8032889793	0.9680282593	0.9370787266	0.8781165994
1.730000	-1.8875396729	3.5628070500	12.6936088044	0.9665119171	0.9341453948	0.8726280257
1.740000	-1.8841888428	3.5501684072	12.6037072506	0.9654766083	0.9321451716	0.8688949584
1.750000	-1.8797950745	3.5336305876	12.4865601926	0.9639656067	0.9292297917	0.8634683804
1.760000	-1.8747711182	3.5147669121	12.3535887885	0.9622528076	0.9259304904	0.8573473645
1.770000	-1.8722976685	3.5054992173	12.2885339867	0.9613605499	0.9242142192	0.8541723380
1.780000	-1.8677665710	3.4885522518	12.1700008309	0.9598320007	0.9212775158	0.8487524311
1.790000	-1.8627891541	3.4699841972	12.0408009397	0.9579746246	0.9177154748	0.8422020354
1.800000	-1.8595382690	3.4578828321	11.9569572505	0.9569248199	0.9157051873	0.8385162696
1.810000	-1.8555450439	3.4430479142	11.8545858824	0.9554698944	0.9129228363	0.8334285330
1.820000	-1.8503166199	3.4236719684	11.7215348776	0.9537693024	0.9096759647	0.8275106610
1.830000	-1.8459770203	3.4076316911	11.6119609889	0.9520874023	0.9064704678	0.8216888761
1.840000	-1.8410766602	3.3895651989	11.4891784083	0.9504055023	0.9032709677	0.8158997015
1.850000	-1.8362434387	3.3717915311	11.3689992280	0.9485904694	0.8998241097	0.8096842600
1.860000	-1.8305297852	3.3508403170	11.2281445292	0.9464080811	0.8956884159	0.8022583118
1.870000	-1.8258415222	3.3337000764	11.1135937052	0.9445163727	0.8921115850	0.7958645313
1.880000	-1.8210128784	3.3160883734	10.9964483326	0.9428863525	0.8890348172	0.7903834161
1.890000	-1.8155586243	3.2962538622	10.8652993384	0.9406295776	0.8847843148	0.7828443897
1.900000	-1.8090118408	3.2725256907	10.7094486179	0.9379894257	0.8798244457	0.7740920515
1.910000	-1.8049880981	3.2579844583	10.6144943189	0.9364704132	0.8769773284	0.7690909649
1.920000	-1.7982742310	3.2337917880	10.4574297521	0.9340049744	0.8723655024	0.7610223037
1.930000	-1.7928581238	3.2143408558	10.3319949014	0.9317314148	0.8681235589	0.7536389637
1.940000	-1.7850708008	3.1864795525	10.1536747342	0.9282974243	0.8617363764	0.7425905076
1.950000	-1.7803428650	3.1696228139	10.0465353573	0.9264709473	0.8583487795	0.7367638743
1.960000	-1.7735389709	3.1454418425	9.8938215197	0.9238521576	0.8535030710	0.7284683872
1.970000	-1.7660751343	3.1190227852	9.7283206658	0.9201805115	0.8467325755	0.7169574156
1.980000	-1.7601371765	3.0980840752	9.5981397344	0.9175491333	0.8418965984	0.7087905097
1.990000	-1.7533866882	3.0743652231	9.4517257647	0.9147491455	0.8367662258	0.7001784752
2.000000	-1.7458000183	3.0478245822	9.2893185603	0.9115531921	0.8309315708	0.6904550809
2.010000	-1.7397857666	3.0268560270	9.1618757245	0.9088275909	0.8259679695	0.6822243398
2.020000	-1.7323318481	3.0009779594	9.0059206663	0.9055496216	0.8200206897	0.6724358094
2.030000	-1.7235198975	2.9705217526	8.8240103618	0.9012123108	0.8121839347	0.6596437373
2.040000	-1.7153091431	2.9422867320	8.6570662248	0.8971603394	0.8048970683	0.6478605588
2.050000	-1.7074867249	2.9155123320	8.5002286805	0.8931560516	0.7977281824	0.6363716874
2.060000	-1.6987998962	2.8859235298	8.3285827748	0.8886356354	0.7896747600	0.6235908570
2.070000	-1.6907112122	2.8585058272	8.1710718643	0.8852584839	0.7836830709	0.6141606848
2.080000	-1.6811676025	2.8263257134	7.9881306593	0.8795207977	0.7735575412	0.5983934579
2.090000	-1.6706367493	2.7910305676	7.7898898353	0.8736476898	0.7632613963	0.5825713518
2.100000	-1.6626502991	2.7644088938	7.6419883478	0.8692646027	0.7556231195	0.5709728582
2.110000	-1.6514259338	2.7272091472	7.4376864572	0.8630115509	0.7447897158	0.5547140430
2.120000	-1.6425575256	2.6979974053	7.2792135342	0.8575939178	0.7354677356	0.5409139890
2.130000	-1.6326309204	2.6654847028	7.1048191571	0.8523288727	0.7264646384	0.5277512518
2.140000	-1.6228363037	2.6335987306	6.9358534583	0.8442985535	0.7128408869	0.5081445240
2.150000	-1.6111785889	2.5958971217	6.7386888873	0.8380599976	0.7023470227	0.4932982511
2.160000	-1.5989578247	2.5566769940	6.5367082669	0.8296531677	0.6883290284	0.4738096216
2.170000	-1.5872955322	2.5195112236	6.3479783278	0.8216194153	0.6750608498	0.4557135940
2.180000	-1.5728172302	2.4737557175	6.1194839629	0.8092662811	0.6549130779	0.4289141924
2.190000	-1.5635772705	2.4447777054	5.9769754265	0.8000675201	0.6401113315	0.4097509635
2.200000	-1.5496330261	2.4013710790	5.7666653772	0.7891288757	0.6227309688	0.3878102856
2.210000	-1.5327438354	2.3493078107	5.5192861244	0.7764621735	0.6028969805	0.3634931681
2.220000	-1.5199287415	2.3101859387	5.3369827247	0.7656482697	0.5862192221	0.3436575584
2.230000	-1.5041725159	2.2625379843	5.1191054853	0.7509872437	0.5639919794	0.3181097595
2.240000	-1.4850128174	2.2052674245	4.8632427831	0.7283611298	0.5305295061	0.2815028718
2.250000	-1.4750991821	2.1759186163	4.7346306981	0.7141288757	0.5099826907	0.2600877282
2.260000	-1.4566551208	2.1218463504	4.5022506870	0.6953609467	0.4835510941	0.2338685685
2.270000	-1.4390434265	2.0708565070	4.2885337645	0.6703395844	0.4493793216	0.2019850428
2.280000	-1.4217033386	2.0212428866	4.0854430520	0.6445575714	0.4154664138	0.1726321980
2.290000	-1.3999496460	1.9598668909	3.8411400170	0.6121929169	0.3748097502	0.1405267214
2.300000	-1.3815101624	1.9085931420	3.6429024961	0.5748275757	0.3305485313	0.1094251025
2.310000	-1.3617141724	1.8542740042	3.4383953819	0.5402618408	0.2919180527	0.0852575361
2.320000	-1.3419662476	1.8008934264	3.2433615897	0.4980731964	0.2482309980	0.0617719383
2.330000	-1.3222351074	1.7483194045	3.0567170144	0.4380699158	0.1921685630	0.0371321771
2.340000	-1.2994674683	1.6886185651	2.8514520082	0.3694976807	0.1366077605	0.0187049085
2.350000	-1.2800300598	1.6384802778	2.6846393920	0.3136550903	0.0985132733	0.0097577565
2.360000	-1.2639266968	1.5975116382	2.5520494647	0.2699008942	0.0729138052	0.0053363687
2.370000	-1.2484329224	1.5585894119	2.4292299291	0.2227649689	0.0497775750	0.0025084021
2.380000	-1.2371032715	1.5304427376	2.3423665746	0.1849720001	0.0344096703	0.0012109635
2.390000	-1.2204650879	1.4895370983	2.2187330965	0.1271785736	0.0162050120	0.0002646840
2.400000	-1.2078315735	1.4588686802	2.1283654489	0.0907402039	0.0083357394	0.0000727752
2.410000	-1.1955657959	1.4293779316	2.0431233254	0.0543212891	0.0029664324	0.0000090037
2.420000	-1.1856422424	1.4057515275	1.9761598361	0.0431686401	0.0019070128	0.0000039455
2.430000	-1.1743209839	1.3790325509	1.9017461159	0.0214481354	0.0005136083	0.0000003498
2.440000	-1.1625205994	1.3514595647	1.8264722220	0.0051605225	0.0000303561	0.0000000011
2.450000	-1.1538139343	1.3312886428	1.7723403624	0.0143226624	0.0002092690	0.0000000470
2.460000	-1.1418296814	1.3037795053	1.6998643276	0.0096008301	0.0000963504	0.0000000107
2.470000	-1.1334754944	1.2847722401	1.6506681883	0.0035488129	0.0000160849	0.0000000004
2.480000	-1.1240226746	1.2634280994	1.5962562564	0.0097736359	0.0001101846	0.0000000161
2.490000	-1.1162925720	1.2461095446	1.5527911803	0.0074607849	0.0000603795	0.0000000050
2.500000	-1.1057846069	1.2227640673	1.4951738235	0.0143787384	0.0002585251	0.0000000889
2.510000	-1.0959304810	1.2010674332	1.4425813146	0.0059070587	0.0000501471	0.0000000049
2.520000	-1.0889526367	1.1858184360	1.4061681668	0.0099731445	0.0001365427	0.0000000353
2.530000	-1.0807754517	1.1680821823	1.3644468801	0.0067543030	0.0000555481	0.0000000052
2.540000	-1.0747329712	1.1550531547	1.3341579346	0.0129085541	0.0001808832	0.0000000399
2.550000	-1.0655288696	1.1353553398	1.2890479423	0.0110137939	0.0001296461	0.0000000214
2.560000	-1.0575973511	1.1185138061	1.2510805060	0.0054313660	0.0000393627	0.0000000031
2.570000	-1.0495590210	1.1015798984	1.2135036547	0.0021553040	0.0000073408	0.0000000001
2.580000	-1.0429672241	1.0877860485	1.1833020185	0.0058853149	0.0000385653	0.0000000021
2.590000	-1.0365646362	1.0744678871	1.1544883070	0.0034328461	0.0000138505	0.0000000003
2.600000	-1.0284561157	1.0577248832	1.1187941960	0.0035163879	0.0000161880	0.0000000004
2.610000	-1.0220512390	1.0445894649	1.0911701992	0.0043083191	0.0000272623	0.0000000018
2.620000	-1.0153198242	1.0308762845	1.0627139168	0.0060169220	0.0000545677	0.0000000059
2.630000	-1.0093231201	1.0187365172	1.0378377682	0.0040172577	0.0000236301	0.0000000011
2.640000	-1.0008087158	1.0016186009	1.0032418851	0.0032722473	0.0000115111	0.0000000002
2.650000	-0.9944648743	0.9889655123	0.9780731093	0.0059616089	0.0000433436	0.0000000030
2.660000	-0.9878227234	0.9757955655	0.9521841475	0.0054409027	0.0000434777	0.0000000046
2.670000	-0.9829963684	0.9662847800	0.9337175532	0.0042728424	0.0000312368	0.0000000023
2.680000	-0.9747070313	0.9500551668	0.9026100286	0.0042713165	0.0000258452	0.0000000014
2.690000	-0.9692985535	0.9395401140	0.8827372346	0.0026279449	0.0000084412	0.0000000001
2.700000	-0.9650306702	0.9312873080	0.8673076500	0.0064521790	0.0000509464	0.0000000037
2.710000	-0.9583122253	0.9183639173	0.8433981496	0.0047531128	0.0000329384	0.0000000027
2.720000	-0.9521987915	0.9066871504	0.8220983117	0.0050281525	0.0000365588	0.0000000022
2.730000	-0.9459259033	0.8947786019	0.8006387153	0.0033439636	0.0000150224	0.0000000004
2.740000	-0.9404548645	0.8844571719	0.7822709316	0.0031631470	0.0000136190	0.0000000004
2.750000	-0.9354301453	0.8750382425	0.7657222839	0.0021125793	0.0000049803	0.0000000000
2.760000	-0.9280532837	0.8612858816	0.7418236488	0.0033443451	0.0000157291	0.0000000005
2.770000	-0.9221313477	0.8503281395	0.7230644675	0.0021152496	0.0000070876	0.0000000001
2.780000	-0.9192840576	0.8450851805	0.7141757155	0.0037796021	0.0000204024	0.0000000007
2.790000	-0.9120925903	0.8319146016	0.6920875910	0.0026439667	0.0000107855	0.0000000003
2.800000	-0.9072746277	0.8231491182	0.6775806200	0.0043182373	0.0000203452	0.0000000005
2.810000	-0.9023155212	0.8141759113	0.6628909051	0.0022335052	0.0000058055	0.0000000001
2.820000	-0.8969329834	0.8044912530	0.6472141560	0.0029376984	0.0000117337	0.0000000003
2.830000	-0.8932846069	0.7979663187	0.6367787483	0.0042945862	0.0000319446	0.0000000031
2.840000	-0.8881179810	0.7887551584	0.6221397831	0.0068874359	0.0000600625	0.0000000073
2.850000	-0.8830879211	0.7798460694	0.6081654860	0.0020359039	0.0000044882	0.0000000000
2.860000	-0.8765388489	0.7683223291	0.5903252830	0.0036743164	0.0000212170	0.0000000013
2.870000	-0.8749008179	0.7654519491	0.5859182419	0.0035594940	0.0000183002	0.0000000006
2.880000	-0.8680694580	0.7535448398	0.5678305967	0.0024017334	0.0000115480	0.0000000003
2.890000	-0.8641777039	0.7468095306	0.5577436661	0.0015766144	0.0000038383	0.0000000000
2.900000	-0.8588005066	0.7375452662	0.5439935067	0.0034934998	0.0000195637	0.0000000008
2.910000	-0.8543922424	0.7299903501	0.5328983221	0.0031410217	0.0000129096	0.0000000003
2.920000	-0.8510749817	0.7243314380	0.5246641780	0.0031085968	0.0000168233	0.0000000009
2.930000	-0.8471115112	0.7175995281	0.5149537202	0.0046234131	0.0000245453	0.0000000009
2.940000	-0.8431022644	0.7108273651	0.5052924279	0.0039787292	0.0000241590	0.0000000015
2.950000	-0.8385467529	0.7031612549	0.4944374322	0.0033115387	0.0000112762	0.0000000001
2.960000	-0.8340766907	0.6956888614	0.4839967467	0.0049068451	0.0000375961	0.0000000025
2.970000	-0.8294982910	0.6880687095	0.4734421118	0.0033470154	0.0000113682	0.0000000001
2.980000	-0.8264732361	0.6830608455	0.4665798626	0.0032756805	0.0000126666	0.0000000003
2.990000	-0.8228858948	0.6771426868	0.4585262568	0.0015830994	0.0000044417	0.0000000001
3.000000	-0.8164344788	0.6665676714	0.4443188999	0.0032901764	0.0000123146	0.0000000002

===== Performance statistics =====
# started on Mon Mar 24 18:27:00 2025


 Performance counter stats for './tiny_ising':

         56,358.70 msec task-clock                       #    1.000 CPUs utilized             
               129      context-switches                 #    2.289 /sec                      
                 0      cpu-migrations                   #    0.000 /sec                      
               595      page-faults                      #   10.557 /sec                      
   201,636,913,992      cycles                           #    3.578 GHz                       
     5,812,295,752      stalled-cycles-frontend          #    2.88% frontend cycles idle      
   518,431,327,861      instructions                     #    2.57  insn per cycle            
                                                  #    0.01  stalled cycles per insn   
   106,074,572,589      branches                         #    1.882 G/sec                     
     1,285,317,256      branch-misses                    #    1.21% of all branches           

      56.364587172 seconds time elapsed

      56.355066000 seconds user
       0.003999000 seconds sys


